time (s)	magX	magY	magZ
6846.356200	-25.649326	272.739319	113.771484
6846.359530	-26.818237	277.882507	118.739319
6846.362868	-28.571598	282.382782	124.992981
6846.366196	-29.857395	287.818207	130.662186
6846.369526	-31.435417	293.428955	137.558731
6846.372862	-33.071888	298.630615	143.987717
6846.376192	-34.591469	304.182922	151.351837
6846.379527	-36.578609	309.384552	158.248398
6846.382860	-37.922855	314.410858	165.378723
6846.386253	-39.559322	319.963165	173.268829
6846.389531	-41.838696	325.515472	182.327881
6846.392894	-43.358273	331.184662	190.568680
6846.396194	-44.936295	337.029205	199.744598
6846.399522	-47.332558	341.821747	208.511398
6846.404174	-51.891289	352.166565	226.512573
6846.407093	-53.936882	357.660400	237.266510
6846.410394	-56.742256	362.043823	247.026886
6846.413772	-59.372299	366.135010	258.540619
6846.416635	-61.943893	371.687317	269.119232
6846.419991	-64.632378	376.129150	282.152527
6846.423284	-67.788429	380.044983	293.081818
6846.426190	-70.886032	384.077728	305.355347
6846.429525	-73.866745	387.467560	316.752197
6846.432857	-77.315018	391.266479	329.259491
6846.436188	-80.412628	394.364105	342.468140
6846.439517	-84.737579	397.695496	356.553467
6846.442852	-88.536530	400.267059	369.645233
6846.446185	-92.744591	402.312653	385.074829
6846.449544	-96.660439	403.715363	399.686157
6846.452850	-100.634720	404.825836	414.297516
6846.456183	-105.485680	405.644043	428.850372
6846.459519	-110.161308	406.111633	445.273499
6846.462855	-115.129166	406.228485	462.690216
6846.466184	-119.454117	404.475159	478.996460
6846.469523	-124.597305	403.656921	496.062561
6846.472853	-129.565170	401.143738	513.596130
6846.476187	-134.240799	398.338348	532.357117
6846.479540	-139.734665	394.130310	549.247803
6846.482866	-144.819397	389.454681	567.424316
6846.486182	-150.196381	383.843933	586.477478
6846.490375	-160.658096	370.050842	625.343689
6846.493719	-167.028641	360.874908	643.987732
6846.497025	-171.587372	351.991211	663.216248
6846.499938	-177.315018	342.113953	681.743408
6846.503276	-182.984222	330.191101	701.205688
6846.506626	-188.478088	317.566925	720.083618
6846.509976	-194.264175	304.358276	737.500305
6846.512851	-199.290466	290.214478	755.676819
6846.516227	-203.790756	274.434235	773.444153
6846.519520	-209.167740	258.361755	790.685547
6846.522868	-214.135605	242.055527	806.232056
6846.526177	-218.518997	223.586792	822.830566
6846.529516	-223.428421	205.468735	838.552368
6846.532844	-227.694916	185.597321	851.410278
6846.536179	-231.260086	165.550552	865.437195
6846.539512	-235.000580	144.919342	876.132629
6846.542842	-239.208649	123.703690	888.113953
6846.546183	-242.949158	102.955582	897.523682
6846.549516	-246.923462	80.980133	906.232056
6846.552848	-250.079498	59.121567	914.063721
6846.556171	-252.241974	36.912331	919.791382
6846.559509	-255.281128	14.527761	924.876099
6846.562847	-257.677399	-7.798364	929.025696
6846.566184	-259.722961	-29.890707	930.895996
6846.569509	-261.593231	-51.866158	932.473999
6846.573767	-264.106384	-94.531265	929.960815
6846.577094	-265.216827	-115.220924	926.395691
6846.580363	-266.035065	-135.735245	921.486267
6846.583688	-265.859711	-155.781998	915.174194
6846.586599	-266.210419	-175.010513	909.037354
6846.589931	-265.625946	-194.297485	900.796570
6846.593266	-265.392151	-212.298660	891.036194
6846.596174	-264.398590	-229.364685	881.568115
6846.599508	-262.411438	-246.021622	867.541199
6846.602859	-261.184113	-261.217407	855.559875
6846.606166	-258.612518	-275.770325	841.591431
6846.609504	-256.625366	-290.557007	826.687866
6846.612835	-254.053772	-303.648773	810.907593
6846.616212	-251.423737	-316.506744	793.374023
6846.619507	-247.098785	-327.436005	778.178284
6846.622841	-243.299805	-338.482178	759.709534
6846.626168	-239.325546	-348.184113	741.942139
6846.629506	-235.175919	-356.892456	723.064270
6846.632839	-230.792526	-364.665710	702.666870
6846.636168	-225.883102	-372.263611	683.789062
6846.639499	-221.441269	-377.289886	665.495605
6846.642839	-217.408539	-383.192871	644.163025
6846.646198	-212.499115	-387.810059	624.408569
6846.649498	-207.765060	-391.492126	603.426636
6846.652837	-202.037415	-393.654602	584.081238
6846.656168	-197.011108	-395.700195	564.034485
6846.660369	-186.607834	-397.687347	525.986572
6846.663799	-181.523087	-397.804230	506.232056
6846.667090	-176.964355	-397.219788	487.003479
6846.670018	-171.821152	-395.992432	468.943909
6846.673259	-167.496201	-394.472839	451.410278
6846.676589	-161.651672	-392.193451	433.058411
6846.679920	-157.268265	-389.797211	415.992432
6846.682826	-152.767975	-387.050262	399.569244
6846.686166	-149.144363	-383.368195	383.964355
6846.689531	-144.118057	-379.452362	369.236115
6846.692827	-140.319107	-375.302765	354.449432
6846.696158	-135.994156	-371.562256	340.305664
6846.699496	-132.838104	-367.587982	326.395660
6846.702828	-128.279358	-362.620117	312.719452
6846.706162	-124.889542	-358.236725	299.803040
6846.709495	-121.675034	-352.801300	287.529510
6846.712828	-117.583878	-348.184113	275.957336
6846.716162	-114.661606	-343.683807	264.092926
6846.719493	-111.330215	-338.189972	252.988312
6846.722861	-108.700180	-333.397430	242.468140
6846.726160	-105.193459	-328.780243	232.707794
6846.729496	-101.920509	-323.169495	222.246033
6846.732853	-98.881355	-318.201630	212.485687
6846.736160	-96.777321	-313.058441	203.835770
6846.739494	-93.796616	-307.564606	195.244308
6846.742825	-90.991234	-301.720062	185.542358
6846.747006	-85.029808	-291.433685	170.112793
6846.750366	-82.516663	-286.407379	162.514893
6846.753699	-80.763298	-281.088867	155.910583
6846.756609	-78.074814	-275.302765	148.780243
6846.759941	-75.094101	-271.737579	141.474579
6846.763283	-73.223846	-266.711273	135.688477
6846.766188	-70.652252	-261.743408	128.967270
6846.769488	-67.729988	-257.067780	123.298065
6846.772824	-65.918175	-252.450623	117.862640
6846.776191	-63.989479	-247.015198	112.076569
6846.779485	-61.651665	-242.514908	106.699585
6846.782822	-59.722977	-237.897720	102.023972
6846.786156	-57.677383	-233.514313	96.588547
6846.789488	-56.566917	-228.955582	93.140259
6846.792821	-54.872009	-224.805954	87.880188
6846.796152	-53.060196	-221.007019	83.204559
6846.799491	-51.715958	-216.682053	79.113388
6846.802817	-49.962601	-212.473984	76.132675
6846.806156	-48.033901	-208.265930	72.567505
6846.809487	-46.338982	-204.466980	69.119217
6846.812817	-45.053185	-201.194031	65.495621
6846.816151	-43.942726	-197.570435	62.164234
6846.819498	-42.656929	-193.362350	60.352421
6846.822820	-42.014027	-190.264755	58.073055
6846.826150	-40.143776	-186.641144	54.449444
6846.830411	-38.331970	-180.621277	49.832264
6846.833665	-37.046173	-176.997665	47.552891
6846.836996	-36.111046	-174.075394	46.267094
6846.840326	-35.000584	-171.445358	44.338398
6846.843231	-34.533020	-168.698410	42.643482
6846.846572	-33.831676	-166.652832	40.656345
6846.849936	-33.773232	-163.496780	39.312099
6846.852811	-32.604324	-160.808304	37.734074
6846.856145	-31.844536	-158.645813	35.454708
6846.859477	-31.026302	-156.191116	34.578022
6846.862822	-30.266514	-154.203979	32.766224
6846.866193	-30.032730	-151.340149	31.246639
6846.869485	-28.980717	-149.586792	30.603741
6846.872814	-28.746933	-147.774979	29.201054
6846.876146	-27.987144	-145.320282	27.798363
6846.879476	-27.636471	-142.865570	26.512566
6846.882813	-26.584457	-140.761551	25.226768
6846.886142	-26.233780	-138.365280	23.707191
6846.889479	-25.649326	-136.728821	23.356518
6846.892843	-24.889538	-134.800110	22.129162
6846.896147	-24.012859	-132.637650	21.369377
6846.899478	-24.129749	-130.942734	20.083580
6846.902809	-23.662186	-128.604919	19.382229
6846.906147	-22.493279	-126.968445	18.680885
6846.909472	-22.376389	-125.448860	17.278198
6846.912808	-21.733490	-124.338402	17.453537
6846.917068	-20.623028	-120.773232	14.355930
6846.920394	-19.921684	-118.727638	14.823494
6846.923769	-18.986561	-117.967857	13.596142
6846.926992	-18.869671	-116.214493	12.485680
6846.929904	-18.226772	-114.636467	12.368790
6846.933227	-18.051434	-113.116890	11.492111
6846.936600	-17.934544	-112.064873	11.609001
6846.939470	-17.525425	-110.311516	10.264759
6846.942810	-16.707188	-109.843948	9.621861
6846.946142	-16.356518	-108.850380	9.271187
6846.949476	-16.005844	-107.506134	9.154297
6846.952803	-16.356518	-106.395676	8.569843
6846.956138	-15.187610	-105.811218	8.277615
6846.959472	-15.304500	-104.291641	8.043835
6846.962804	-15.246055	-103.473404	6.991817
6846.966133	-14.778491	-103.064285	7.459381
6846.969491	-14.252484	-101.895378	6.115139
6846.972798	-14.252484	-101.427818	6.290474
6846.976138	-14.310929	-101.135590	5.881359
6846.979492	-14.194039	-100.434250	5.764465
6846.982800	-14.427819	-99.732903	5.706017
6846.986132	-14.310929	-99.382233	6.524258
6846.989470	-14.018703	-98.680885	5.998249
6846.992808	-13.843366	-97.745766	5.355347
6846.996130	-13.668031	-97.979546	5.004673
6846.999470	-14.018703	-97.336639	4.244884
6847.003670	-12.849795	-95.758621	4.654003
6847.007012	-12.966687	-95.758621	4.244884
6847.010424	-13.200467	-95.407951	5.180012
6847.013247	-13.258914	-95.291061	4.303329
6847.016593	-12.616015	-94.239037	4.654003
6847.019892	-12.323789	-94.122147	4.420219
6847.023257	-12.031562	-93.479248	4.829338
6847.026127	-12.090007	-93.070129	4.186440
6847.029463	-11.914670	-93.128578	3.368206
6847.032797	-11.973115	-92.076561	3.543541
6847.036128	-11.271771	-92.018112	3.952660
6847.039463	-11.680888	-92.018112	4.420219
6847.042797	-11.505553	-91.433662	3.251316
6847.046125	-11.622443	-92.135002	4.011105
6847.049457	-11.154881	-91.667442	3.134422
6847.052810	-11.271771	-91.199883	3.075977
6847.056127	-10.511981	-90.732315	3.075977
6847.059459	-10.336644	-91.433662	3.251316
6847.062791	-10.219754	-91.024544	3.251316
6847.066131	-10.336644	-91.082993	2.082409
6847.069466	-10.278199	-90.440094	2.199299
6847.072798	-10.044417	-90.790764	2.140854
6847.076126	-9.693746	-90.790764	2.082409
6847.079461	-9.576856	-90.732315	2.491524
6847.082792	-9.869082	-90.849205	2.199299
6847.087416	-8.933957	-91.316772	2.783752
6847.090306	-8.875512	-91.609001	2.549969
6847.093656	-9.167739	-92.018112	3.017532
6847.097023	-9.576856	-92.368790	2.199299
6847.099901	-9.518411	-92.251892	2.374634
6847.103229	-9.050847	-92.368790	2.433079
6847.106594	-9.226184	-93.128578	2.900642
6847.109462	-8.875512	-93.420799	2.900642
6847.112789	-9.401519	-94.005257	2.666862
6847.116119	-9.226184	-94.414375	3.251316
6847.119457	-8.992402	-94.998833	3.485096
6847.122787	-9.343074	-95.466393	4.478664
6847.126119	-9.226184	-96.343079	4.361774
6847.129458	-8.992402	-96.693748	5.063118
6847.132783	-8.758620	-97.102859	4.887783
6847.136120	-9.050847	-97.511978	4.946228
6847.139473	-8.641730	-98.330215	5.881359
6847.142785	-9.226184	-98.973114	6.348919
6847.146125	-8.875512	-99.616013	6.933372
6847.149442	-8.933957	-100.375801	6.582703
6847.152781	-8.466393	-101.369377	6.699593
6847.156114	-8.875512	-101.836937	7.634716
6847.159451	-8.817067	-102.246048	7.342491
6847.162788	-8.817067	-103.298065	6.874928
6847.166113	-9.109292	-104.233200	8.452953
6847.169448	-8.992402	-104.876091	8.920513
6847.173657	-8.817067	-106.746346	8.803623
6847.177012	-8.524840	-107.798363	9.154297
6847.180292	-8.524840	-108.908821	9.095852
6847.183229	-8.232614	-109.960838	9.797195
6847.186538	-8.057277	-110.895966	10.264759
6847.189873	-8.174167	-111.655754	10.966103
6847.193228	-7.823495	-112.532433	11.609001
6847.196111	-8.583285	-113.292229	12.427235
6847.199442	-7.765050	-114.753357	12.368790
6847.202778	-7.414378	-115.922264	12.485680
6847.206112	-7.706605	-117.441841	13.303913
6847.209465	-7.706605	-118.552307	14.414375
6847.212781	-7.765050	-119.721214	14.589710
6847.216113	-7.765050	-121.065453	15.758617
6847.219480	-7.765050	-122.351250	15.758617
6847.222779	-7.823495	-124.279953	17.453537
6847.226115	-7.122151	-125.974869	18.096432
6847.229445	-7.239041	-127.085327	18.330212
6847.232773	-7.531268	-129.306259	19.265339
6847.236110	-7.355933	-131.293396	20.901814
6847.239441	-7.239041	-132.637650	21.603157
6847.242776	-7.531268	-135.092346	23.064289
6847.246109	-7.531268	-137.021042	24.057861
6847.249441	-7.589715	-138.599060	25.986557
6847.252770	-7.297488	-141.053772	26.980129
6847.257023	-7.355933	-145.495621	30.136173
6847.260376	-7.297488	-148.359451	31.538868
6847.263743	-7.706605	-150.638809	32.649326
6847.266953	-6.771480	-153.035065	34.519581
6847.269868	-6.596143	-155.548218	36.156048
6847.273198	-6.946816	-158.002930	38.260082
6847.276529	-6.771480	-161.275864	39.838108
6847.279438	-6.713035	-163.847458	41.182346
6847.282771	-6.654590	-166.302155	43.753941
6847.286100	-6.187026	-169.516663	45.857975
6847.289434	-5.953244	-172.088257	47.669781
6847.292769	-5.368791	-174.952072	50.182934
6847.296102	-5.544126	-178.049683	52.754528
6847.299435	-5.661017	-180.679718	54.917004
6847.302772	-5.602571	-184.127991	57.137936
6847.306142	-5.076564	-187.868500	59.475750
6847.309433	-4.375220	-190.440094	62.514904
6847.312770	-4.959672	-193.537704	64.852722
6847.316104	-3.849212	-197.511978	67.891876
6847.319429	-3.615430	-201.077148	71.807709
6847.322765	-2.972531	-205.460541	73.736420
6847.326098	-3.089421	-208.382812	78.178253
6847.329431	-1.803624	-212.298660	81.042084
6847.332765	-2.212743	-215.746933	84.782593
6847.336100	-1.219170	-219.545883	88.113968
6847.339430	-0.400935	-223.052612	92.322037
6847.343640	0.475745	-231.819397	100.855042
6847.347051	1.060198	-236.027466	105.881348
6847.350393	1.936878	-240.293961	110.381638
6847.353209	2.521333	-244.268265	115.174164
6847.356525	3.164231	-249.060791	120.434235
6847.359865	3.807130	-253.911743	125.518997
6847.363184	4.800701	-258.645844	131.071304
6847.366100	5.385155	-263.204559	138.084732
6847.369431	6.437171	-267.587952	143.695496
6847.372763	7.021625	-272.789581	151.585617
6847.376092	8.599649	-277.640564	158.774399
6847.379433	9.534775	-282.900635	166.489197
6847.382768	10.294564	-287.985413	174.437759
6847.386094	11.112799	-292.777924	184.198135
6847.389428	12.164816	-298.563995	192.906494
6847.392760	13.918176	-304.408539	200.504364
6847.396091	15.729982	-309.610168	210.790771
6847.399421	17.074224	-315.688507	221.194031
6847.402759	18.593803	-320.481018	232.240204
6847.406107	19.996492	-326.208679	243.052582
6847.409473	21.457626	-331.760986	254.858551
6847.412756	22.918762	-336.495056	266.372284
6847.416091	24.847458	-341.930450	278.528931
6847.419425	27.009935	-347.482788	291.036255
6847.422790	28.587959	-351.457062	305.296906
6847.427377	32.562244	-360.808289	333.409119
6847.430305	34.841614	-365.834625	347.319122
6847.433644	37.004089	-368.990662	364.151367
6847.437043	39.926357	-373.023407	377.710693
6847.439877	42.965515	-376.705444	394.133820
6847.443209	45.712448	-380.621307	409.271149
6847.446516	48.926941	-383.017548	426.687866
6847.449844	51.732319	-385.998260	444.455322
6847.452751	55.122147	-388.686768	461.638245
6847.456091	58.219753	-390.147888	478.704285
6847.459423	62.310928	-391.725891	496.880798
6847.462751	65.466980	-392.193451	515.232605
6847.466109	69.149033	-393.362396	533.876648
6847.469417	72.538864	-393.187042	553.105164
6847.472751	77.448273	-392.661011	573.093506
6847.476082	81.247223	-392.076569	592.088257
6847.479421	85.513733	-390.673889	611.316772
6847.482751	89.312683	-387.634735	631.947937
6847.486081	94.280533	-384.654022	652.053162
6847.489415	97.962593	-380.445953	670.872559
6847.492747	102.521332	-375.419647	691.854431
6847.496106	107.196960	-370.218018	711.667480
6847.499413	111.346581	-363.789032	730.837524
6847.502756	115.729988	-356.074249	751.527161
6847.506085	120.522499	-348.768585	771.924561
6847.509434	125.022789	-339.241974	790.510254
6847.513595	133.555817	-318.669189	829.142639
6847.516930	138.114548	-307.389252	845.857971
6847.520293	142.614838	-293.362396	862.865601
6847.523613	146.530685	-279.978394	879.288757
6847.526552	150.797180	-265.191711	894.893616
6847.529868	154.537704	-249.879013	906.641174
6847.533229	157.985977	-232.637634	921.369324
6847.536075	161.901810	-215.454712	931.188171
6847.539444	165.291641	-197.336655	942.760315
6847.542748	168.623032	-178.166565	951.059570
6847.546078	171.720642	-158.236710	957.839294
6847.549411	175.227356	-137.488602	962.923950
6847.552758	177.857391	-116.331383	966.664490
6847.556083	180.253647	-94.998833	969.528381
6847.559407	182.299240	-72.731148	970.580383
6847.562743	184.695496	-51.340149	969.060791
6847.566075	186.039749	-29.481590	967.833374
6847.569412	188.494446	-7.038574	963.508484
6847.572746	189.955582	15.287550	960.060181
6847.576072	191.182938	37.263008	952.929871
6847.579410	191.825836	59.004677	945.448853
6847.582758	192.176514	80.454124	936.565186
6847.586077	193.579193	101.962006	926.278748
6847.589404	194.046753	122.943893	913.303894
6847.592743	193.637634	142.639984	901.439514
6847.596087	193.286972	161.985382	873.151917
6847.600259	191.884277	199.331970	860.936890
6847.603588	190.773819	216.982468	843.403320
6847.606934	189.254242	233.347168	827.739868
6847.609828	187.676208	249.361191	810.732361
6847.613185	186.331970	264.849213	793.958557
6847.616499	184.052597	280.103455	775.314392
6847.619446	182.065460	293.896515	757.605469
6847.622735	179.961426	306.929840	739.662781
6847.626074	176.980713	318.385132	721.544739
6847.629406	174.759796	330.658661	701.322632
6847.632735	171.019287	340.828156	683.321472
6847.636094	167.454117	350.530060	664.502014
6847.639401	164.356522	359.063110	645.390442
6847.642732	160.966675	367.479218	625.051392
6847.646063	157.752197	373.791321	606.991821
6847.649402	153.661011	380.278778	587.178833
6847.652730	150.738754	385.947998	568.593262
6847.656066	146.413788	390.331360	548.838684
6847.659407	142.614838	394.422516	530.311523
6847.662740	139.049683	397.637024	511.316772
6847.666072	134.958511	399.857941	492.322021
6847.669413	130.633545	402.604919	475.898895
6847.672731	127.360603	403.189362	457.254822
6847.676061	123.503204	403.656921	439.955017
6847.679398	119.412041	402.897125	421.895386
6847.683670	112.924606	400.559326	390.568665
6847.687009	109.768555	399.273499	374.320862
6847.690312	106.612511	396.760376	359.943298
6847.693583	102.638222	393.721191	344.805939
6847.696489	99.189949	390.740479	330.779083
6847.699820	96.676796	387.350647	317.687317
6847.703149	93.988312	383.551697	304.595551
6847.706493	90.773811	380.395660	290.860870
6847.709396	88.260666	375.486267	278.938049
6847.712729	85.747513	371.628845	266.956757
6847.716065	83.701927	366.953217	255.676788
6847.719390	80.545876	362.511383	244.455292
6847.722729	78.500290	357.952637	234.636475
6847.726063	76.454704	352.867920	225.168304
6847.729434	74.409119	347.198700	214.706604
6847.732726	72.012863	342.815308	205.998245
6847.736062	69.558159	337.321442	197.465225
6847.739389	67.395676	332.295135	189.165985
6847.742728	65.466980	327.151947	181.860321
6847.746060	63.596725	322.300995	174.028625
6847.749430	61.375801	317.099365	166.430725
6847.752724	60.148449	312.482178	159.943298
6847.756053	58.044418	307.280518	152.520752
6847.759386	56.115723	301.669769	145.507309
6847.762727	54.537693	296.643463	139.604324
6847.766053	53.251896	291.558716	133.642899
6847.770254	49.745178	281.915222	122.246063
6847.773648	48.167152	276.713593	117.219757
6847.776993	46.589130	272.505554	112.193451
6847.780326	44.894211	267.654572	107.167160
6847.783147	43.842197	263.037384	101.790176
6847.786489	42.381062	258.303314	96.939209
6847.789816	40.978374	253.686142	92.205139
6847.792745	39.341904	248.952072	88.639969
6847.796058	38.231441	243.925766	83.263000
6847.799385	36.478085	240.243698	79.113388
6847.802724	35.542957	236.152542	76.775574
6847.806050	34.257160	231.652252	72.333725
6847.809390	33.088253	227.268845	69.119217
6847.812717	32.503799	223.411453	64.969604
6847.816048	30.808884	218.911163	62.514904
6847.819385	30.224430	215.170654	58.365284
6847.822716	29.055523	212.131516	56.553478
6847.826047	28.587959	208.040329	52.929867
6847.829383	27.477497	204.416718	50.182934
6847.832718	26.483927	200.851547	47.728230
6847.836065	25.841028	197.403275	46.442425
6847.839380	25.373466	193.955002	44.104618
